# p(sv | n_pbh, n_u) for m_dm=100, M_pbh=0.5, N_PBH=1 at LIGO 03.
# Columns are: <sigma v> (cm^3/s), p.
0.000000000000000000e+00 7.954707771757923858e+35
1.000000000000000008e-50 7.954707771757923858e+35
1.189016742441989860e-50 7.954707884196841151e+35
1.413760813807361267e-50 7.954707979199974158e+35
1.680985277425365402e-50 7.954708080567210260e+35
1.998719638657252707e-50 7.954708213104711149e+35
2.376511113811077527e-50 7.954708349248011860e+35
2.825711502920832547e-50 7.954708478107617149e+35
3.359818286283787984e-50 7.954708624405242468e+35
3.994880193954178495e-50 7.954708829397286240e+35
4.749979434661422495e-50 7.954708991925605470e+35
5.647805074067569460e-50 7.954709181856651566e+35
6.715334791115162088e-50 7.954709399435068200e+35
7.984645497739110711e-50 7.954709647812075767e+35
9.493877179275858524e-50 7.954709888149105348e+35
1.128837891684692862e-49 7.954710177882981162e+35
1.342207152716017374e-49 7.954710476265530293e+35
1.595906776404737557e-49 7.954710839759239125e+35
1.897559876521858093e-49 7.954711160402840865e+35
2.256230462970644415e-49 7.954711606286851309e+35
2.682695795279738111e-49 7.954711981299018521e+35
3.189770215466337909e-49 7.954712451341016345e+35
3.792690190732269570e-49 7.954713050677480051e+35
4.509572135676171927e-49 7.954713553755877274e+35
5.361956770568849806e-49 7.954714114579216897e+35
6.375456372456545492e-49 7.954714837765845275e+35
7.580524367559308297e-49 7.954715642987321265e+35
9.013370389517493734e-49 7.954716257894647702e+35
1.071704829896718076e-48 7.954717210192856838e+35
1.274274985703142556e-48 7.954718296979701121e+35
1.515134292476063748e-48 7.954719170222650109e+35
1.801520040802038555e-48 7.954720316196091161e+35
2.142037490358400518e-48 7.954721562911634722e+35
2.546918438974560925e-48 7.954722722751933065e+35
3.028328665574970228e-48 7.954724429562262506e+35
3.600733484985649692e-48 7.954726284546252613e+35
4.281332398719360803e-48 7.954727683801274324e+35
5.090575902036645203e-48 7.954729640635639944e+35
6.052779976193305978e-48 7.954731812209725064e+35
7.196856730011469749e-48 7.954734080779247630e+35
8.557183144939949911e-48 7.954736381287670964e+35
1.017463402747600053e-47 7.954738977672428934e+35
1.209781020688893921e-47 7.954742161265528814e+35
1.438449888287654256e-47 7.954744721246975851e+35
1.710341000337830931e-47 7.954748524174327074e+35
2.033624084686661890e-47 7.954752224945606292e+35
2.418013084525708054e-47 7.954756383673060659e+35
2.875058040944865755e-47 7.954761978434708198e+35
3.418492146175913427e-47 7.954766406505735019e+35
4.064644395709611189e-47 7.954771465012609089e+35
4.832930238571732625e-47 7.954777326619982031e+35
5.746434968715950367e-47 7.954783612452448476e+35
6.832607387157377786e-47 7.954789982184963002e+35
8.124084577862940641e-47 7.954797987934306320e+35
9.659672580093803534e-47 7.954806056556649647e+35
1.148551242423934437e-46 7.954815632132533432e+35
1.365646656794606861e-46 7.954824932757480238e+35
1.623776739188717628e-46 7.954837286841551195e+35
1.930697728883245568e-46 7.954847340717616589e+35
2.295631924236904824e-46 7.954861591550269118e+35
2.729544792402001789e-46 7.954876687800471309e+35
3.245474457411325561e-46 7.954887563119351892e+35
3.858923467029899441e-46 7.954904649659749363e+35
4.588324610100840512e-46 7.954924795818188731e+35
5.455594781168514207e-46 7.954941888648134935e+35
6.486793534788508035e-46 7.954969061473273684e+35
7.712906117627992271e-46 7.954986805385957328e+35
9.170774506742931455e-46 7.955015651709822832e+35
1.090420442967752625e-45 7.955038420400661561e+35
1.296528162989668949e-45 7.955073404939658606e+35
1.541593692842273466e-45 7.955104805221027489e+35
1.832980710832437558e-45 7.955135439312420111e+35
2.179444753752987880e-45 7.955174011719824284e+35
2.591396301439662448e-45 7.955224762356053189e+35
3.081213588714008717e-45 7.955262796187687990e+35
3.663614544020723589e-45 7.955322685565593169e+35
4.356099030694616943e-45 7.955377066665304891e+35
5.179474679231223320e-45 7.955435189691111725e+35
6.158482110660279458e-45 7.955498851904384889e+35
7.322538337604556569e-45 7.955573052809627103e+35
8.706620680585153855e-45 7.955646627929455104e+35
1.035231775930742005e-44 7.955728401296086857e+35
1.230907913889606823e-44 7.955821063738994979e+35
1.463570118019085726e-44 7.955932162951468113e+35
1.740209374062492166e-44 7.956036173894593859e+35
2.069138081114798573e-44 7.956171394233011655e+35
2.460239820869787442e-44 7.956295023184126482e+35
2.925266337436659795e-44 7.956452375647324098e+35
3.478190651314148142e-44 7.956589556304536614e+35
4.135626917817731151e-44 7.956767541312392499e+35
4.917329645779045505e-44 7.956952024455579592e+35
5.846787276937624953e-44 7.957161140004195993e+35
6.951927961775648310e-44 7.957401520031940204e+35
8.265958738801727858e-44 7.957625225100443415e+35
9.828363332769930159e-44 7.957865520375613677e+35
1.168608855346640154e-43 7.958151783916993317e+35
1.389495494373124705e-43 7.958480254301586244e+35
1.652133406357354991e-43 7.958799068121202549e+35
1.964414280906610762e-43 7.959182820704685186e+35
2.335721469090102128e-43 7.959605407394397548e+35
2.777211932429332463e-43 7.960022544221459981e+35
3.302151484968148527e-43 7.960543180998595702e+35
3.926313401706807789e-43 7.961036293493624896e+35
4.668452370703756687e-43 7.961709118674826378e+35
5.550868030059765490e-43 7.962350079978605808e+35
6.600075022827048055e-43 7.962979839754976233e+35
7.847599703514559041e-43 7.963671025405857983e+35
9.330927435461606367e-43 7.964435656728161558e+35
1.109462894327514996e-42 7.965431572901383611e+35
1.319169956473563568e-42 7.966401458298882627e+35
1.568515164373538285e-42 7.967450870781462403e+35
1.864990791214286721e-42 7.968505387274813264e+35
2.217505275253920569e-42 7.969812200821466753e+35
2.636650898730344669e-42 7.971188641937792917e+35
3.135022062565099285e-42 7.972905317223644814e+35
3.727593720314922889e-42 7.974200807259651709e+35
4.432171342476067197e-42 7.976002110022042282e+35
5.269925931575634884e-42 7.977900120669472075e+35
6.266030164072629718e-42 7.980153018110714803e+35
7.450414773728886827e-42 7.982319759449880500e+35
8.858667904100795258e-42 7.984671008663673864e+35
1.053310445370933838e-41 7.988252658897587888e+35
1.252403754535069354e-41 7.990884495254705085e+35
1.489129032439405580e-41 7.994200664235695085e+35
1.770599351226894475e-41 7.997708697236032622e+35
2.105272272765702771e-41 8.001459132314741860e+35
2.503203979717320031e-41 8.005965709455542531e+35
2.976351441631312887e-41 8.010433727009489617e+35
3.538931695490984230e-41 8.015973623862420064e+35
4.207849036297398312e-41 8.021486331491169913e+35
5.003202953825999263e-41 8.027475340044674554e+35
5.948892077934330607e-41 8.033369077710632453e+35
7.073332279644438688e-41 8.041828428589800538e+35
8.410310505352605235e-41 8.050454187539663402e+35
9.999999999999999293e-41 8.059051576501559273e+35
1.189016742441989970e-40 8.068014319144906559e+35
1.413760813807361440e-40 8.080025728210173409e+35
1.680985277425365388e-40 8.090911039123069766e+35
1.998719638657252835e-40 8.104367369483002389e+35
2.376511113811077473e-40 8.117312636267885214e+35
2.825711502920832574e-40 8.133410520622701288e+35
3.359818286283787997e-40 8.147544131468979937e+35
3.994880193954178816e-40 8.166711924482904605e+35
4.749979434661422069e-40 8.190743725211399414e+35
5.647805074067568583e-40 8.210855064904962632e+35
6.715334791115162185e-40 8.239473230316807752e+35
7.984645497739110500e-40 8.268786902094049757e+35
9.493877179275859444e-40 8.293610900338078214e+35
1.128837891684692992e-39 8.329984289733507463e+35
1.342207152716017386e-39 8.377024683155798523e+35
1.595906776404737598e-39 8.413625950694856286e+35
1.897559876521858292e-39 8.464857223634094587e+35
2.256230462970644391e-39 8.513752530819634805e+35
2.682695795279738367e-39 8.575130412644977585e+35
3.189770215466337677e-39 8.645897326395940214e+35
3.792690190732269159e-39 8.727246081642157908e+35
4.509572135676172168e-39 8.803754916792598670e+35
5.361956770568849664e-39 8.917750053441875606e+35
6.375456372456545851e-39 9.022176431517421216e+35
7.580524367559308140e-39 9.159929541111771904e+35
9.013370389517494454e-39 9.302568110141093810e+35
1.071704829896717956e-38 9.458963893574125665e+35
1.274274985703142658e-38 9.646447189663870842e+35
1.515134292476063778e-38 9.811365464857366623e+35
1.801520040802038659e-38 1.001668043328339065e+36
2.142037490358400653e-38 1.017787440028672000e+36
2.546918438974560735e-38 1.036028053963763011e+36
3.028328665574970319e-38 1.049410579437576953e+36
3.600733484985649611e-38 1.057644168650472199e+36
4.281332398719430646e-38 1.059870889501822529e+36
5.090575902036645303e-38 1.056092270624474897e+36
6.052779976193306022e-38 1.044772697911826857e+36
7.196856730011470012e-38 1.022597808989113213e+36
8.557183144939949682e-38 9.886839369979158138e+35
1.017463402747600150e-37 9.565317357227869500e+35
1.209781020688893942e-37 9.041259599787311600e+35
1.438449888287654128e-37 8.436346162145382357e+35
1.710341000337830819e-37 7.839326992431445512e+35
2.033624084686662046e-37 7.184796771672108871e+35
2.418013084525708212e-37 6.545226595800118602e+35
2.875058040944865598e-37 5.899888435701482808e+35
3.418492146175913189e-37 5.284997496839386780e+35
4.064644395709611438e-37 4.590084305169414213e+35
4.832930238571732400e-37 4.015567169703002895e+35
5.746434968715950289e-37 3.501793944961267531e+35
6.832607387157377013e-37 2.965875968287532324e+35
8.124084577862941173e-37 2.440657941507569446e+35
9.659672580093802307e-37 2.051385478708315716e+35
1.148551242423934579e-36 1.730633766834447582e+35
1.365646656794606820e-36 1.448444869296494449e+35
1.623776739188717752e-36 1.174085129969132236e+35
1.930697728883245802e-36 9.366346849473447720e+34
2.295631924236904795e-36 7.670294280908165453e+34
2.729544792402001671e-36 6.118266501887035036e+34
3.245474457411325772e-36 4.918780996755165158e+34
3.858923467029898893e-36 3.957756374213651485e+34
4.588324610100840198e-36 3.138366449912820017e+34
5.455594781168514461e-36 2.444116747397436022e+34
6.486793534788508083e-36 1.960930497934610344e+34
7.712906117627991760e-36 1.504925852739720001e+34
9.170774506742930749e-36 1.199957483223113135e+34
1.090420442967752678e-35 9.567784103699822595e+33
1.296528162989668929e-35 7.165288031627106342e+33
1.541593692842273518e-35 5.592477576055456463e+33
1.832980710832437648e-35 4.242156791077848388e+33
2.179444753752987861e-35 3.290156587617631510e+33
2.591396301439662296e-35 2.577573423964912041e+33
3.081213588714008545e-35 2.006476090122668352e+33
3.663614544020723619e-35 1.539617494486454222e+33
4.356099030694617215e-35 1.213888365238487064e+33
5.179474679231223229e-35 9.440760311871948842e+32
6.158482110660279565e-35 7.215881804827890774e+32
7.322538337604556431e-35 5.594659249629429212e+32
8.706620680585153099e-35 4.273748061618974358e+32
1.035231775930725084e-34 3.438779184906524422e+32
1.230907913889586815e-34 2.581616950351736246e+32
1.463570118019061746e-34 1.957852830704133098e+32
1.740209374062463599e-34 1.525878321495374057e+32
2.069138081114764718e-34 1.177066650286109258e+32
2.460239820869747400e-34 9.187429286186677473e+31
2.925266337436611922e-34 7.032012160962800935e+31
3.478190651314091079e-34 5.592928036500337844e+31
4.135626917817663884e-34 4.241111541411056506e+31
4.917329645778965878e-34 3.294170276243432425e+31
5.846787276937529888e-34 2.526826153527506113e+31
6.951927961775534262e-34 1.860415732640409948e+31
8.265958738801727481e-34 1.498522988104872704e+31
9.828363332769929968e-34 1.123262494033971777e+31
1.168608855346640073e-33 8.428142533005717797e+30
1.389495494373124596e-33 6.612650087003113528e+30
1.652133406357355133e-33 5.004383699633292035e+30
1.964414280906610495e-33 3.989095557936229867e+30
2.335721469090102326e-33 2.919066288722241557e+30
2.777211932429332248e-33 2.182654569871718210e+30
3.302151484968148166e-33 1.637680714718932682e+30
3.926313401706807283e-33 1.126831076365487418e+30
4.668452370703756172e-33 8.558092125713641396e+29
5.550868030059765558e-33 5.548514720588416726e+29
6.600075022827047244e-33 3.250823100411054456e+29
7.847599703514558812e-33 2.031233504145465348e+29
9.330927435461605906e-33 1.147546962885565166e+29
1.109462894327515071e-32 5.382701468847632174e+28
1.319169956473563643e-32 2.485729289289891575e+28
1.568515164373538197e-32 8.738829349211771856e+27
1.864990791214286614e-32 3.253793924278748267e+27
2.217505275253920385e-32 6.259827936674476263e+26
2.636650898730344510e-32 1.560476762960865242e+26
3.135022062565099166e-32 3.677913019694030475e+25
3.727593720314922617e-32 3.669982197691226912e+24
4.432171342476067284e-32 5.717130219944331612e+23
5.269925931575634992e-32 2.452537481611316717e+22
6.266030164072630685e-32 1.242537123841842610e+21
7.450414773728886908e-32 4.821029671691722752e+19
8.858667904100795297e-32 5.281104910196920320e+17
1.053310445370933745e-31 6.942568425342047000e+15
1.252403754535069346e-31 6.818490037346918750e+13
1.489129032439405730e-31 2.962144481514290771e+11
1.770599351226894307e-31 6.519544971873077002e-64
2.105272272765702596e-31 2.088169083293554211e-75
2.503203979717320356e-31 3.432926548040882065e-86
2.976351441631312892e-31 1.531857783884352799e-99
3.538931695490984424e-31 1.283965176097359575e-112
4.207849036297398437e-31 2.458953519293699296e-125
5.003202953825998857e-31 3.194588698188374307e-142
5.948892077934331216e-31 0.000000000000000000e+00
7.073332279644438679e-31 0.000000000000000000e+00
8.410310505352604344e-31 0.000000000000000000e+00
1.000000000000000083e-30 0.000000000000000000e+00
1.189016742441989972e-30 0.000000000000000000e+00
1.413760813807361430e-30 0.000000000000000000e+00
1.680985277425365305e-30 0.000000000000000000e+00
1.998719638657252508e-30 0.000000000000000000e+00
2.376511113811077718e-30 0.000000000000000000e+00
2.825711502920832569e-30 0.000000000000000000e+00
3.359818286283760256e-30 0.000000000000000000e+00
3.994880193954145735e-30 0.000000000000000000e+00
4.749979434661383277e-30 0.000000000000000000e+00
5.647805074067522963e-30 0.000000000000000000e+00
6.715334791115107335e-30 0.000000000000000000e+00
7.984645497739045995e-30 0.000000000000000000e+00
9.493877179275781653e-30 0.000000000000000000e+00
1.128837891684683654e-29 0.000000000000000000e+00
1.342207152716006353e-29 0.000000000000000000e+00
1.595906776404724459e-29 0.000000000000000000e+00
1.897559876521842612e-29 0.000000000000000000e+00
2.256230462970625992e-29 0.000000000000000000e+00
2.682695795279716308e-29 0.000000000000000000e+00
3.189770215466311504e-29 0.000000000000000000e+00
3.792690190732238006e-29 0.000000000000000000e+00
4.509572135676135318e-29 0.000000000000000000e+00
5.361956770568805261e-29 0.000000000000000000e+00
6.375456372456492981e-29 0.000000000000000000e+00
7.580524367559246275e-29 0.000000000000000000e+00
9.013370389517420156e-29 0.000000000000000000e+00
1.071704829896709159e-28 0.000000000000000000e+00
1.274274985703132027e-28 0.000000000000000000e+00
1.515134292476051350e-28 0.000000000000000000e+00
1.801520040802023820e-28 0.000000000000000000e+00
2.142037490358383195e-28 0.000000000000000000e+00
2.546918438974539874e-28 0.000000000000000000e+00
3.028328665574945722e-28 0.000000000000000000e+00
3.600733484985619873e-28 0.000000000000000000e+00
4.281332398719395742e-28 0.000000000000000000e+00
5.090575902036686847e-28 0.000000000000000000e+00
6.052779976193354957e-28 0.000000000000000000e+00
7.196856730011469515e-28 0.000000000000000000e+00
8.557183144939949670e-28 0.000000000000000000e+00
1.017463402747600075e-27 0.000000000000000000e+00
1.209781020688893940e-27 0.000000000000000000e+00
1.438449888287654216e-27 0.000000000000000000e+00
1.710341000337830840e-27 0.000000000000000000e+00
2.033624084686662048e-27 0.000000000000000000e+00
2.418013084525708337e-27 0.000000000000000000e+00
2.875058040944865634e-27 0.000000000000000000e+00
3.418492146175912958e-27 0.000000000000000000e+00
4.064644395709611283e-27 0.000000000000000000e+00
4.832930238571732206e-27 0.000000000000000000e+00
5.746434968715950468e-27 0.000000000000000000e+00
6.832607387157377466e-27 0.000000000000000000e+00
8.124084577862940915e-27 0.000000000000000000e+00
9.659672580093803294e-27 0.000000000000000000e+00
1.148551242423934507e-26 0.000000000000000000e+00
1.365646656794606917e-26 0.000000000000000000e+00
1.623776739188717584e-26 0.000000000000000000e+00
1.930697728883245721e-26 0.000000000000000000e+00
2.295631924236905071e-26 0.000000000000000000e+00
2.729544792402001865e-26 0.000000000000000000e+00
3.245474457411325728e-26 0.000000000000000000e+00
3.858923467029899039e-26 0.000000000000000000e+00
4.588324610100840307e-26 0.000000000000000000e+00
5.455594781168514419e-26 0.000000000000000000e+00
6.486793534788507225e-26 0.000000000000000000e+00
7.712906117627992349e-26 0.000000000000000000e+00
9.170774506742930502e-26 0.000000000000000000e+00
1.090420442967752701e-25 0.000000000000000000e+00
1.296528162989668783e-25 0.000000000000000000e+00
1.541593692842273401e-25 0.000000000000000000e+00
1.832980710832437477e-25 0.000000000000000000e+00
2.179444753752969959e-25 0.000000000000000000e+00
2.591396301439641298e-25 0.000000000000000000e+00
3.081213588713983414e-25 0.000000000000000000e+00
3.663614544020693394e-25 0.000000000000000000e+00
4.356099030694581054e-25 0.000000000000000000e+00
5.179474679231180716e-25 0.000000000000000000e+00
6.158482110660229262e-25 0.000000000000000000e+00
7.322538337604495996e-25 0.000000000000000000e+00
8.706620680585081739e-25 0.000000000000000000e+00
1.035231775930733548e-24 0.000000000000000000e+00
1.230907913889596749e-24 0.000000000000000000e+00
1.463570118019073818e-24 0.000000000000000000e+00
1.740209374062477874e-24 0.000000000000000000e+00
2.069138081114781540e-24 0.000000000000000000e+00
2.460239820869767447e-24 0.000000000000000000e+00
2.925266337436635900e-24 0.000000000000000000e+00
3.478190651314119804e-24 0.000000000000000000e+00
4.135626917817697320e-24 0.000000000000000000e+00
4.917329645779005756e-24 0.000000000000000000e+00
5.846787276937577803e-24 0.000000000000000000e+00
6.951927961775590936e-24 0.000000000000000000e+00
8.265958738801796036e-24 0.000000000000000000e+00
9.828363332770010991e-24 0.000000000000000000e+00
1.168608855346649689e-23 0.000000000000000000e+00
1.389495494373136145e-23 0.000000000000000000e+00
1.652133406357368514e-23 0.000000000000000000e+00
1.964414280906626618e-23 0.000000000000000000e+00
2.335721469090121347e-23 0.000000000000000000e+00
2.777211932429355185e-23 0.000000000000000000e+00
3.302151484968175769e-23 0.000000000000000000e+00
3.926313401706839457e-23 0.000000000000000000e+00
4.668452370703756206e-23 0.000000000000000000e+00
5.550868030059765499e-23 0.000000000000000000e+00
6.600075022827047846e-23 0.000000000000000000e+00
7.847599703514558222e-23 0.000000000000000000e+00
9.330927435461606097e-23 0.000000000000000000e+00
1.109462894327515011e-22 0.000000000000000000e+00
1.319169956473563626e-22 0.000000000000000000e+00
1.568515164373538106e-22 0.000000000000000000e+00
1.864990791214286568e-22 0.000000000000000000e+00
2.217505275253920443e-22 0.000000000000000000e+00
2.636650898730344589e-22 0.000000000000000000e+00
3.135022062565099241e-22 0.000000000000000000e+00
3.727593720314922833e-22 0.000000000000000000e+00
4.432171342476066991e-22 0.000000000000000000e+00
5.269925931575634425e-22 0.000000000000000000e+00
6.266030164072630342e-22 0.000000000000000000e+00
7.450414773728886281e-22 0.000000000000000000e+00
8.858667904100796078e-22 0.000000000000000000e+00
1.053310445370933835e-21 0.000000000000000000e+00
1.252403754535069368e-21 0.000000000000000000e+00
1.489129032439405729e-21 0.000000000000000000e+00
1.770599351226894273e-21 0.000000000000000000e+00
2.105272272765702904e-21 0.000000000000000000e+00
2.503203979717320401e-21 0.000000000000000000e+00
2.976351441631313227e-21 0.000000000000000000e+00
3.538931695490984102e-21 0.000000000000000000e+00
4.207849036297398702e-21 0.000000000000000000e+00
5.003202953825999268e-21 0.000000000000000000e+00
