# Column 0: Energy [MeV]
# Column 1: E^2 times Broadband Flux Sensitivity [erg cm^{-2} s^{-1}]
    31.623 2.4047e-11
    35.112 2.0553e-11
    38.986 1.7567e-11
    43.288 1.5015e-11
    48.064 1.2833e-11
    53.367 1.1007e-11
    59.255 9.6327e-12
    65.793 8.5562e-12
    73.053 7.6872e-12
    81.113 6.9605e-12
    90.063 6.3347e-12
       100 5.8079e-12
    111.03 5.3414e-12
    123.28 4.9139e-12
    136.89 4.5668e-12
    151.99 4.2442e-12
    168.76 3.9443e-12
    187.38 3.6686e-12
    208.06 3.4453e-12
    231.01 3.2356e-12
     256.5 3.0387e-12
     284.8 2.8537e-12
    316.23   2.68e-12
    351.12 2.5306e-12
    389.86 2.4016e-12
    432.88 2.2791e-12
    480.64 2.1629e-12
    533.67 2.0527e-12
    592.55  1.948e-12
    657.93 1.8487e-12
    730.53 1.7632e-12
    811.13 1.6909e-12
    900.63 1.6216e-12
      1000 1.5551e-12
    1110.3 1.4913e-12
    1232.8 1.4302e-12
    1368.9 1.3716e-12
    1519.9 1.3153e-12
    1687.6 1.2711e-12
    1873.8 1.2318e-12
    2080.6 1.1937e-12
    2310.1 1.1568e-12
      2565  1.121e-12
      2848 1.0864e-12
    3162.3 1.0528e-12
    3511.2 1.0239e-12
    3898.6 1.0027e-12
    4328.8 9.8192e-13
    4806.4 9.6158e-13
    5336.7 9.4166e-13
    5925.5 9.2216e-13
    6579.3 9.0305e-13
    7305.3  8.935e-13
    8111.3 8.8419e-13
    9006.3 8.7499e-13
     10000 8.6588e-13
     11103 8.5686e-13
     12328 8.5454e-13
     13689 8.5454e-13
     15199 8.5454e-13
     16876 8.5924e-13
     18738 8.6828e-13
     20806 8.7742e-13
     23101 8.8665e-13
     25650 8.9598e-13
     28480 9.0541e-13
     31623 9.1861e-13
     35112 9.3804e-13
     38986 9.5902e-13
     43288 9.8961e-13
     48064 1.0212e-12
     53367 1.0538e-12
     59255 1.0982e-12
     65793 1.1451e-12
     73053 1.1942e-12
     81113 1.2584e-12
     90063  1.326e-12
     1e+05 1.4016e-12
1.1103e+05 1.4924e-12
1.2328e+05 1.5891e-12
1.3689e+05 1.7069e-12
1.5199e+05 1.8366e-12
1.6876e+05 1.9889e-12
1.8738e+05 2.1626e-12
2.0806e+05 2.3674e-12
2.3101e+05 2.6012e-12
 2.565e+05  2.886e-12
 2.848e+05 3.2191e-12
3.1623e+05 3.6179e-12
3.5112e+05 4.1049e-12
3.8986e+05 4.7095e-12
4.3288e+05 5.4716e-12
4.8064e+05 6.4017e-12
5.3367e+05 7.4899e-12
5.9255e+05 8.7631e-12
6.5793e+05 1.0253e-11
7.3053e+05 1.1996e-11
8.1113e+05 1.4035e-11
9.0063e+05  1.642e-11
     1e+06 1.9212e-11
